time,x,y,theta,theta_degree,v,omega
0.2,-1.6117879904430088e-05,2.5077822486249332e-05,-1.000077230750056,-57.300204509109165,0.08943298799654341,0.06395145891240533
0.235,-2.0707859410135088e-05,3.2203465708773374e-05,-1.0001106786834246,-57.302120934524616,0.08942928423423187,-0.06981893136037293
0.267,-2.0668736129783594e-05,3.2161156365629814e-05,-1.0001106504800013,-57.30211931858749,0.08942537645273978,-0.06749628558465672
0.3,-2.0668272234616522e-05,3.2162194642988e-05,-1.0001106406629443,-57.30211875611156,0.0894208248608423,-0.06284418560972953
0.334,0.0001818305187894411,-0.0002829873026542126,-0.9996600738149423,-57.27630317733253,0.08941558134467044,-0.05180430396101551
0.367,0.0007912671324144058,-0.0012297165705013637,-0.9984039354147243,-57.20433174851573,0.08940995439268287,-0.03303911115084083
0.4,0.0018532545017910258,-0.002873408825058231,-0.9962933387663788,-57.083403468311076,0.08940379785897284,-0.07402911717019266
0.434,0.003287820919309979,-0.005083321091692414,-0.9945358813649047,-56.98270857653257,0.08939690092465466,-0.11854405329944441
0.467,0.004878474015071856,-0.007537434338340646,-0.9968044011878077,-57.11268518812668,0.08938966935269763,-0.14444324530232935
0.5,0.0065183746549117415,-0.010084668514004492,-1.0004993165443274,-57.324388243713344,0.08938190837914103,-0.14591828716016364
0.534,0.008100810120429375,-0.012564904449242291,-1.0048654498591212,-57.574549255442484,0.08937335858904501,-0.12540209490152668
0.567,0.009665636261065763,-0.015041910317087681,-1.009416076026674,-57.83528092898505,0.08936452298681234,-0.12165356910776508
0.6,0.011257906161474505,-0.017587252444159505,-1.0136807615523815,-58.07962941055863,0.08935515820631766,-0.11742342983131158
0.639,0.01279309928024805,-0.020063916632579122,-1.0176871868064339,-58.30918066855046,0.08934340860614783,-0.07760720727569738
0.678,0.014318853839370744,-0.02254707706741704,-1.02155394741831,-58.53072973199838,0.08933092016795405,-0.07103581207428916
0.7,0.015892043790428592,-0.02512594866093485,-1.0241977334267336,-58.68220751221679,0.08932354952233941,-0.18055285463640222
0.734,0.01740938863872976,-0.027627011538725328,-1.0265296049969046,-58.81581391155414,0.08931169624752032,-0.08081868061161447
0.767,0.01889779393292004,-0.030099926993819665,-1.0314659609610004,-59.09864627447106,0.08929965487772162,-0.0763806605964538
0.8,0.0204273845300484,-0.03266809166184883,-1.034701780626348,-59.284045084560915,0.0892870849060331,-0.07214445849699061
0.834,0.021891420498986514,-0.03513820985732953,-1.0365024726811856,-59.38721713950584,0.08927358127223943,-0.05878653378359738
0.869,0.023325865886769243,-0.03756589448566102,-1.0374265680590669,-59.44016390452599,0.08925909460918068,-0.05092191148850461
0.9,0.024751436781790412,-0.03997922868191021,-1.0369809660399683,-59.414632789489126,0.08924576733336309,-0.06429809680876589
0.934,0.026099587555339684,-0.04225732098930601,-1.0359048375848592,-59.35297517079744,0.08923061444292034,-0.04861875172206145
0.967,0.027437193710269626,-0.04451076476978149,-1.0349824576600792,-59.300126693999964,0.08921537123649831,-0.05271790662661249
1.0,0.028805209758778788,-0.04681532211921066,-1.0356171629702926,-59.33649262950973,0.08919960017760227,-0.05503107802658898
1.034,0.03015531481561905,-0.04909804639771336,-1.0378082342856894,-59.46203176849414,0.08918279926796399,-0.047992889145712314
1.067,0.031559218687940746,-0.05148768759255462,-1.0411332008639873,-59.65253832045267,0.0891659569451565,-0.050171220619047587
1.1,0.03304583673459136,-0.054035181866821845,-1.0435074145436127,-59.78857074395743,0.08914858720952686,-0.05143163199463756
1.134,0.03452259160149751,-0.056576135601887234,-1.045032747273924,-59.87596587175744,0.08913013965334647,-0.04423737567697537
1.167,0.03598926909148012,-0.05910934418228343,-1.0467365076084316,-59.973584148226514,0.08911169959041158,-0.043645360195054335
1.201,0.03749691724620542,-0.061722884759620934,-1.0482359912668742,-60.05949823330411,0.08909214961633274,-0.0404902906092899
1.2349999999999999,0.038956328028488765,-0.06426140741742785,-1.0496749774481071,-60.14194606826641,0.08907204047823061,-0.03474333642738189
1.267,0.040412439050233506,-0.0668022886819986,-1.0510069570427938,-60.2182628774395,0.08905260360737152,-0.0376661507956904
1.3,0.041910028491778765,-0.06942310460523878,-1.0521835078571433,-60.2856742734844,0.08903204090839424,-0.03501773999240654
1.334,0.043360121761925954,-0.07196791345466454,-1.0534134579288688,-60.356145221606084,0.08901030471829875,-0.027456049435143143
1.3679999999999999,0.044806795261620486,-0.07451375897601722,-1.0545667426835081,-60.4222235706237,0.08898801013821042,-0.025099072150607592
1.4,0.046295651852186634,-0.07714012000027676,-1.055495659120371,-60.47544656197628,0.08896651710650416,-0.03045950361375064
1.435,0.04773841080983177,-0.07969034306400481,-1.0563198460840324,-60.52266899652378,0.08894244316977147,-0.01981870564975239
1.467,0.04918141149245134,-0.08224618341075933,-1.0572348074970341,-60.5750924239061,0.08891991548784632,-0.024199990206449643
1.508,0.05066452468630536,-0.08487785567296564,-1.057889219303705,-60.61258745849187,0.08889033016535615,-0.013741438652577443
1.534,0.05210323239023722,-0.0874348160156023,-1.0586143690359804,-60.654135477666294,0.08887114884636803,-0.04076744944293739
1.567,0.053540079286096845,-0.08999188982140446,-1.0590440417367475,-60.67875390999224,0.08884633421347221,-0.017742446678864786
1.6,0.055017989757609694,-0.09262731858845893,-1.0602821526069774,-60.749692437425686,0.08882099501656376,-0.017872079422818758
1.634,0.05644837258075806,-0.09518339540697555,-1.0608514996189522,-60.78231361829022,0.08879433955556593,-0.012797797663221212
1.667,0.05787685720679919,-0.09773940920509899,-1.0614202728820974,-60.814901925768325,0.08876793603567842,-0.013005098577892272
1.7,0.059347743312468185,-0.10037416766421092,-1.0618297953370768,-60.83836583405448,0.0887410086518893,-0.013632191036285234
1.734,0.060773953685405224,-0.10293139027943728,-1.0622325297522064,-60.86144081630608,0.08871271762456703,-0.010166151076066908
1.767,0.06219856592813239,-0.10548823134076098,-1.062653402439583,-60.88555504500509,0.08868472738342942,-0.010363823349434663
1.8,0.06366532525555323,-0.10812294570602263,-1.0629818525194759,-60.90437384836368,0.08865621402204456,-0.010941957744071083
1.834,0.06508732710936808,-0.11067920147848306,-1.0633026806710002,-60.92275594739501,0.08862628975018912,-0.008221918734184156
1.867,0.06650756911318265,-0.11323428557640572,-1.063641734786866,-60.94218231726066,0.08859671508553879,-0.008283127688947702
1.9,0.06796964549916527,-0.1158660433009377,-1.0638889033575865,-60.95634403319122,0.08856661808788525,-0.008859810041377663
1.935,0.06938690607892313,-0.11841839669046955,-1.064108841967762,-60.96894558730625,0.0885341265530307,-0.006837040342950032
1.967,0.07079456844981517,-0.120954180624773,-1.0641214025003891,-60.969665252814224,0.08850390637109512,-0.0077129972477497505
2.001,0.07221859060151829,-0.12351832538562975,-1.063450830151296,-60.93124428735301,0.08847126012843248,-0.007055698062125543
2.034,0.0735542554969014,-0.12591600586702456,-1.061730558391994,-60.832679975929466,0.08843904495966924,-0.009331852174246326
2.067,0.07486052115291196,-0.1282486212150937,-1.0591931232676268,-60.68729565251497,0.08840630886991858,-0.013307065323585578
2.1,0.07620115592033398,-0.13062771177422064,-1.0565236243119303,-60.53434462893898,0.08837305215262416,-0.017277335893204945
2.134,0.07751593251280922,-0.13294746450039954,-1.0544929022838136,-60.41799282736365,0.08833824343963484,-0.021900244237698804
2.167,0.07885172472947544,-0.1352973698511696,-1.0539722773129243,-60.38816321382257,0.08830393061304859,-0.022994270979002845
2.2,0.08024582249963537,-0.13775580288807693,-1.0560879418284865,-60.50938186142987,0.08826909807724373,-0.021652654669586994
2.234,0.0816036774947523,-0.14016405416661215,-1.0584335050403093,-60.64377273404847,0.08823266676942321,-0.017012265511152466
2.267,0.08298483993759379,-0.14262527946968853,-1.060082005723215,-60.7382248657034,0.08819678003326409,-0.013156974897490783
2.3,0.08444946578616389,-0.1452416214539017,-1.0606472932956075,-60.770613457812686,0.08816037455002096,-0.012497893729196163
2.334,0.08586758335969226,-0.14777796598221946,-1.0611063622866823,-60.7969161735066,0.08812232365128637,-0.01053937220271498
2.368,0.08728596036567328,-0.15031717324188115,-1.0615090025886873,-60.81998576347336,0.08808372280026623,-0.009739676091172256
2.4,0.08874616581848344,-0.15293357490012185,-1.0618513051271783,-60.83959825424551,0.08804689053891208,-0.010578855541884263
2.434,0.09016190909387851,-0.15547225138190499,-1.0621603111203415,-60.85730299349801,0.08800722319015984,-0.00891978730355282
2.467,0.09157598166784146,-0.15800963584675254,-1.062503456617813,-60.876963782262045,0.0879681976481215,-0.008110502623110607
2.5,0.09303161310607946,-0.1606236131531169,-1.0627986275905394,-60.89387583323404,0.08792865541495688,-0.007684944639539891
2.535,0.09444315866503848,-0.16315994602260084,-1.0630604661208225,-60.90887807593317,0.08788615246794979,-0.008998446124166911
2.567,0.09585340773905524,-0.16569538782723187,-1.0633101878122713,-60.92318607490605,0.08784678472217664,-0.006480251964321848
2.6,0.09730487436052823,-0.16830660118827875,-1.0636112606211017,-60.94043627617818,0.08780567895291513,-0.006075435781720273
2.634,0.09871270145001108,-0.17084084862624901,-1.0638192239203221,-60.95235169551713,0.0877627886758079,-0.0071193788314378855
2.667,0.10011942127080728,-0.17337426823352664,-1.0640132648258838,-60.96346942045871,0.08772063723342954,-0.005644317012524399
2.7,0.10156736924040294,-0.17598337582049847,-1.0642454769763676,-60.97677419663309,0.08767797133194088,-0.004704812108831217
2.738,0.10297163697942453,-0.1785149126392946,-1.0644253987718926,-60.987082956159085,0.08762820411467434,-0.01895445658584282
2.767,0.10437488623796705,-0.18104551753424647,-1.0645769029089895,-60.99576350379351,0.08758976563237496,-0.004654742987620319
2.8,0.10581796536696823,-0.18365054858421148,-1.0651637438190584,-61.029387011186074,0.0875455431362956,-0.003294604421276174
2.834,0.10721773127688276,-0.18617938027823275,-1.0653110154427865,-61.03782505366773,0.08749944414372082,-0.00612898429127672
2.867,0.1086165603627681,-0.1887071465587849,-1.0654147899073967,-61.04377089251113,0.08745418077511567,-0.0038606159256590416
2.903,0.11005635471910759,-0.19130975355190877,-1.065606381998798,-61.05474831073651,0.08740421857773066,-0.008824236415935964
2.935,0.11145293224370215,-0.19383515938990337,-1.0657266296040748,-61.061637991015424,0.08735929659055594,-0.0015736699918052735
2.967,0.11284758184279861,-0.19635813815710818,-1.0659887882960346,-61.07665857762739,0.08731389392414458,-0.0015420147209258533
3.0,0.11428415433016074,-0.19895793823211883,-1.0660398516412417,-61.07958429179558,0.08726656938814162,-0.0015810126750861683
3.034,0.11567703659821932,-0.20147911403739643,-1.0660782421102706,-61.08178390364446,0.08721727699732888,-0.006980021386319621
3.068,0.11706868385462735,-0.20399829820068915,-1.066107800049038,-61.08347744878694,0.0871674433318072,-0.0069617189092897845
3.1,0.11849977686164452,-0.20658932794743967,-1.0662727774176555,-61.09292995572389,0.08712004703669177,0.00030195871774262565
3.134,0.11988253875862098,-0.20909365462132215,-1.0663067963238864,-61.094879095474575,0.08706916403704362,-0.008549380130458568
3.167,0.1212455541307254,-0.21156098215581037,-1.065662015931901,-61.057935900301025,0.0870192613279866,-0.006759744179067106
3.2,0.12260075371192362,-0.21400693746743757,-1.0640841679453161,-60.967531869956495,0.08696885051441439,-0.009874998227542163
3.235,0.12388323724524924,-0.2163101000877775,-1.061650815420356,-60.82811104020878,0.08691482978228536,-0.0361586282197539
3.267,0.12515864444321406,-0.21858689979783597,-1.0591004103618373,-60.68198359430684,0.08686494014739142,-0.020935616207410843
3.3,0.1264785356570666,-0.22093034951078017,-1.057222966789116,-60.574414001315944,0.08681299244328748,-0.024098375031437032
3.335,0.12777786988683065,-0.22323154506447665,-1.0568682263682834,-60.55408887237954,0.08675734322690379,-0.039648507392646394
3.367,0.1291037066011892,-0.22558397789873375,-1.058653925306213,-60.6564018850039,0.0867059661041512,-0.018450841734173374
3.4,0.13046013579360258,-0.2280066275659867,-1.06181272753344,-60.83738792094053,0.08665248585558798,-0.014318301759209603
3.435,0.13176945463349926,-0.2303607015530546,-1.0642738438238895,-60.97839949727418,0.08659521281336945,-0.026226934567622723
3.467,0.13310385890442084,-0.23277132706412212,-1.0658553362172483,-61.069012336745686,0.08654235250601827,-0.0023877957718323735
3.5,0.13452688524481485,-0.2353487920379644,-1.0666715261339355,-61.115776574253,0.0864873441949257,0.003024289812650273
3.534,0.13590549558600795,-0.2378486605212047,-1.066760518900924,-61.120875484208625,0.08643014261056109,-0.0040615932327143145
3.567,0.1372831772082443,-0.24034632759943697,-1.0666809532577883,-61.11631670866271,0.08637411307280048,0.00015994146761996915
3.6029999999999998,0.13870244461692752,-0.24291962091161284,-1.066820031280988,-61.12428529241507,0.08631241718133242,-0.009370774543072011
3.634,0.140078652447449,-0.24541523318991673,-1.0668187018158288,-61.12420911967244,0.0862588117490616,0.007152178089415576
3.667,0.14145379317612589,-0.24790991308615676,-1.0671162018411364,-61.14125461552761,0.08620126193748551,-6.419792831190961e-05
3.7,0.14286901981517228,-0.25047734099718644,-1.066881143842019,-61.12778678423739,0.08614321149239659,0.0036357760362310354
3.734,0.14424265321458474,-0.25296845841844895,-1.0668803940994607,-61.127743827153076,0.08608287888630628,-0.006578528867078542
3.767,0.14561531771609273,-0.2554574778664283,-1.066762529067737,-61.12099065828313,0.0860238136474229,-0.0012599923632734989
3.8,0.14702874977345223,-0.25802080340388744,-1.0669809920864954,-61.13350766723768,0.08596424940448173,0.0030652178784251337
3.834,0.14839920537757598,-0.26050695261377255,-1.0670211780063052,-61.13581015083863,0.0859023588479579,-0.007900768547518536
3.868,0.14976865458158023,-0.2629910951084485,-1.0669217271785412,-61.13011203813867,0.08583993977236644,-0.007906458642697218
3.901,0.15117856126419055,-0.26554910611564775,-1.0671812957256006,-61.14498422037951,0.0857788516989491,0.0033013994597464627
3.934,0.1525453211734484,-0.26803029320424443,-1.0674310511256648,-61.1592941507138,0.0857172668761492,-0.00212518668002175
3.967,0.15391080192099316,-0.27050962590663863,-1.0673231128114444,-61.15310974086121,0.08565518587177383,-0.00236581089848125
4.0,0.15531686544906784,-0.2730624995262684,-1.0673934533794847,-61.157139958538465,0.08559260925860182,0.002860316496540886
4.034,0.15668047502798424,-0.2755385836967718,-1.0674692217933754,-61.16148116887481,0.08552761863082987,-0.010613584059993884
4.067,0.15804287903880251,-0.27801264053785535,-1.067375491450628,-61.15611081582306,0.08546403756418378,-0.0033817966231565037
4.1,0.1594447386432325,-0.28055905815062027,-1.0677096486332753,-61.17525661208274,0.08539996265485257,0.00250764168474188
4.134,0.16080458689465288,-0.2830301930102502,-1.0678208560318845,-61.181628326673675,0.08533343019118038,-0.01189546919805254
4.167,0.16216305731871028,-0.28549913524090614,-1.0677373009238933,-61.17684097162902,0.08526835446064407,-0.004016087445178386
4.2,0.16356006087583078,-0.2880390494900144,-1.0681050503911504,-61.19791146402104,0.08520278669940433,0.0023918827835711426
4.236,0.16491532072669998,-0.29050410318270237,-1.0682231956216601,-61.20468068709884,0.08513069778823952,-0.032138211984418096
4.267,0.16626873671513248,-0.29296621081985114,-1.0681205966279868,-61.198802197779074,0.08506815320022261,0.009800014498332791
4.3,0.16764524178243312,-0.2954721397945372,-1.0687618168729511,-61.235541411553875,0.08500109817067063,-5.0972467491695026e-05
4.335,0.1689908042100736,-0.2979224644516194,-1.068381084486611,-61.21372705269265,0.08492944426080992,-0.02504208950479739
4.368,0.17030903826986177,-0.30031990011894827,-1.0675496761810366,-61.16609086573111,0.08486138114951179,-0.012033353376587112
4.4,0.1716093222757593,-0.3026772753649495,-1.0660354928656468,-61.07933455235014,0.08479491427040306,-0.009189849971049838
4.434,0.17284757188217784,-0.30491116883830377,-1.0636102005494052,-60.940375538544,0.08472379081817741,-0.05146430835464886
4.469,0.17408391473742116,-0.3071283793598332,-1.0610153523130719,-60.79170168612512,0.08465003555087618,-0.06480425574418679
4.5,0.1753587971420774,-0.3094026385781496,-1.059381823709471,-60.6981073914249,0.08458425262537474,-0.013804113211883328
4.534,0.1766152950429259,-0.3116401861952615,-1.0593061958315242,-60.69377423320501,0.08451161083108899,-0.04847398895877423
4.567,0.17790931325346254,-0.3139488496684228,-1.0608812178912859,-60.78401634986936,0.08444061322036946,-0.024700090581297345
4.6,0.17923694644656502,-0.31633186427295135,-1.0639557547166731,-60.9601743339216,0.08436913128914474,-0.011915308959401827
4.635,0.180497035830298,-0.3186098836917526,-1.066774817309141,-61.12169472265322,0.0842927886268502,-0.04426451433409286
4.667,0.18176319637331068,-0.32091226442629434,-1.0688937824351474,-61.243102481308796,0.08422251420444138,-0.0033180928624696564
4.7,0.18311778966649594,-0.3233870872201844,-1.0707138960610096,-61.34738731030495,0.08414956874390744,0.011136345291681398
4.7379999999999995,0.18445199963716002,-0.3258295419104913,-1.0708045242746542,-61.3525799244516,0.08406497441187194,-0.041949930665468024
4.767,0.18578190513722614,-0.32826312488900555,-1.0704598189377517,-61.332829763471445,0.08399998660333724,0.0352847979334026
4.8,0.18714649107695647,-0.33076288424962325,-1.0717834188713242,-61.40866645342895,0.08392558390243009,0.016213251946874313
4.834,0.1884688910094468,-0.33318656400720925,-1.0707799237294553,-61.35117041703798,0.08384842508188295,-0.0019633526418201823
4.867,0.18979536412643686,-0.33561283265830677,-1.070249148585753,-61.320759241433386,0.08377304961943792,0.007873219593385218
4.9,0.1911636128962584,-0.338114319331439,-1.0703040923093303,-61.3239072849051,0.08369719611008275,0.01630429709918208
4.934,0.19248978168073907,-0.3405383286282417,-1.0700562086638539,-61.30970459820898,0.08361854477029523,-0.0027112771074190305
4.967,0.19381468161250862,-0.3429575542992159,-1.0695265151678184,-61.27935539645062,0.08354172288914076,0.0067780975705567055
5.001,0.19518068993818158,-0.34545074573608736,-1.0696126837077378,-61.2842924901148,0.08346207537035824,0.0068757368620543085
5.034,0.1965052816993532,-0.3478679696991377,-1.0693934191379917,-61.2717295556716,0.08338428811259412,0.0066997935992822
5.067,0.1978290239658305,-0.3502824548458754,-1.0691723066458005,-61.25906074307143,0.08330602648505259,0.006337898270201369
5.1,0.19919341922184874,-0.35276982663530526,-1.0689442125961615,-61.24599191669506,0.08322729123013,0.015172637661846632
5.134,0.20051579172439507,-0.35517937680868467,-1.0687391672664894,-61.23424368469599,0.083145675474925,-0.005384972269577304
5.167,0.20183665422944158,-0.35758390066542334,-1.068246852197614,-61.206036109058736,0.08306598091828615,0.004790906234822347
5.2,0.20319815944074052,-0.3600614600620785,-1.0684211098092853,-61.21602033475553,0.08298581501592119,0.014115222324508828
5.234,0.20451808749893124,-0.36246359835957287,-1.0682652790677931,-61.207091890949634,0.0829027276635379,-0.006516130490420643
5.267,0.20583649661794373,-0.3648611783368041,-1.0678072920654729,-61.180851168644836,0.08282160714086452,0.004187406437346408
5.301,0.20719497110232768,-0.36733075674934146,-1.0680165361089087,-61.19283996922196,0.08273753787873186,0.004245338919500351
5.334,0.20851310770084053,-0.3697279749524515,-1.0682221307432886,-61.204619674062464,0.08265546592726689,0.004812339087334026
