time,x,y,theta,theta_degree,v,omega
0.467,-2.0668736129783594e-05,3.2161156365629814e-05,-1.0001106504800013,-57.30211931858749,0.08938966935269763,0.0008972492778719724
0.5,-2.0668272234616522e-05,3.2162194642988e-05,-1.0001106406629443,-57.30211875611156,0.08938190837914103,0.0009568500135340994
0.534,-2.066872088513777e-05,3.2163262232943676e-05,-1.0001106385452203,-57.302118634774914,0.08937335858904501,0.001021858451512571
0.567,-2.0668752583385963e-05,3.2163384292883956e-05,-1.00011063812218,-57.30211861053649,0.08936452298681234,0.0010851328998311613
0.601,0.00019473692180094898,-0.00030306636742892176,-0.9996364155580415,-57.27494765906148,0.08935486616513967,-0.002220619507724888
0.634,0.000816883736416427,-0.00126946965779,-0.9983587094175695,-57.20174048975449,0.08934495625773414,-0.008885496820270077
0.667,0.0018539259235099423,-0.002874487221022872,-0.9962997312623147,-57.08376973134876,0.08933451734588538,-0.015777005684781055
0.701,0.0033436031366911936,-0.005168795410593709,-0.9943008897394217,-56.96924454817148,0.08932320890841124,-0.02284369054011029
0.734,0.004948830291655129,-0.007639134017429634,-0.9947953969891811,-56.997577726521314,0.08931169624752032,-0.025537559329699772
0.767,0.00655153382806976,-0.010109026747677885,-0.9955173243275907,-57.0389411161273,0.08929965487772162,-0.02533571962503647
0.8,0.008199583270710844,-0.012653163049520839,-0.9963642157680286,-57.08746442137015,0.0892870849060331,-0.02589664013661231
0.835,0.009796488517239464,-0.015122873191423945,-0.9971866762884556,-57.134587938006746,0.08927317561510649,-0.02334812270981633
0.867,0.011390933279870076,-0.017593286914244437,-0.9980275891334199,-57.182768694961545,0.08925993842721237,-0.02541952386232789
0.9,0.013031537655791153,-0.020139740286789914,-0.9988107392146273,-57.227639889340054,0.08924576733336309,-0.025158638270596535
0.934,0.014621232112155116,-0.022611542637215133,-0.9996398488713213,-57.27514437342216,0.08923061444292034,-0.023381670245379446
0.97,0.016208270040293855,-0.025083719696868238,-1.0004665221705618,-57.322509264504795,0.08921395931388278,-0.02176786890464283
1.0,0.017841166271051687,-0.027631845308778408,-1.0012583181857784,-57.36787583441198,0.08919960017760227,-0.027010754215012513
1.034,0.019423827832101014,-0.030105649466079264,-1.0019687487887803,-57.408580509600924,0.08918279926796399,-0.022695296023201555
1.067,0.021002856908521318,-0.03257811932772653,-1.0028624467864466,-57.4597856330265,0.0891659569451565,-0.023172890430291106
1.1,0.0226265722958296,-0.035125123551524154,-1.0035524208915985,-57.49931823722502,0.08914858720952686,-0.02366567326041495
1.134,0.02419263551227234,-0.0375853179285595,-1.0042042597615883,-57.53666585339801,0.08913013965334647,-0.021879163982139713
1.167,0.025731588951354533,-0.040005021888945266,-1.004210938778516,-57.53704853287927,0.08911169959041158,-0.022052249230737956
1.2,0.027256030100554843,-0.042399353412435434,-1.00319814127224,-57.47901951026827,0.08909273259763568,-0.02187853960883674
1.236,0.028674756570620633,-0.044621795705847594,-1.0021868724125713,-57.42107807265625,0.08907144057007278,-0.018561673591655392
1.267,0.030080310685322357,-0.046818494123483795,-1.0012158565078524,-57.36544295947578,0.08905260360737152,-0.021772986546470512
1.3,0.0315632571646756,-0.049130807579175664,-1.0000513841799021,-57.298723609724455,0.08903204090839424,-0.02171590348987103
1.334,0.03307155465411541,-0.05147663297363058,-0.9989694991201841,-57.23673616188435,0.08901030471829875,-0.021583000353345618
1.367,0.034644310524580155,-0.053920966059287846,-0.9993399221523293,-57.25795983826071,0.08898867382928864,-0.023343565816104913
1.4,0.036277255078686635,-0.05646260676684438,-1.0000648173784148,-57.29949327530459,0.08896651710650416,-0.02412670223608253
1.434,0.037860104193886274,-0.058930300892345314,-1.000813815893223,-57.34240772906467,0.08894313919987061,-0.022397431636337985
1.467,0.03944023119500496,-0.061397981039325575,-1.001604257012217,-57.38769666913662,0.08891991548784632,-0.02289018146084691
1.5,0.041066152208981285,-0.0639414849751087,-1.0023559230370769,-57.43076395996447,0.08889616655519848,-0.023406230801284903
1.534,0.04264169455663577,-0.06641027532113918,-1.0031046244833637,-57.473661392952046,0.08887114884636803,-0.021701758920090304
1.567,0.044214718650930164,-0.06887924598204363,-1.0038723905928302,-57.51765115067766,0.08884633421347221,-0.02218152253724717
1.6,0.04583334356999824,-0.07142397840093648,-1.0046063120101918,-57.559701750386736,0.08882099501656376,-0.022681719112686474
1.634,0.047402062008208096,-0.07389423746245338,-1.0053342761676918,-57.60141102424828,0.08879433955556593,-0.021019854530025937
1.667,0.04896846440125116,-0.07636486966868422,-1.0060783296994464,-57.64404215134962,0.08876793603567842,-0.021487045729564343
1.7,0.0505803981097857,-0.07891138637112356,-1.0067871881042951,-57.68465674621983,0.0887410086518893,-0.02197348685536564
1.734,0.052142691887976586,-0.08138334340615828,-1.0074894515926434,-57.72489348020832,0.08871271762456703,-0.02035083190303953
1.767,0.053702725271357804,-0.08385561092808101,-1.0082068564724092,-57.76599775202099,0.08868472738342942,-0.020804593676704383
1.8,0.05530803813417667,-0.08640357323336442,-1.0088911656318167,-57.80520577873719,0.08865621402204456,-0.021275294369388763
1.834,0.05686399617248825,-0.08887693051553973,-1.0095676218985317,-57.84396386784513,0.08862628975018912,-0.019691434072569382
1.867,0.05841772231844927,-0.09135049660049434,-1.010258458514409,-57.883545890268,0.08859671508553879,-0.020131584943798235
1.9,0.060016575445286574,-0.09389970550356512,-1.0109158989253264,-57.92121445109492,0.08856661808788525,-0.020588590756076466
1.9340000000000002,0.06156633886692682,-0.09637423989862803,-1.0115644468801983,-57.958373511720914,0.08853506302938105,-0.019042662558620402
1.967,0.06311384392891838,-0.0988487864211525,-1.0122261958960352,-57.99628893742531,0.08850390637109512,-0.01946908681947399
2.0,0.06470617169748938,-0.10139864373497535,-1.0128551226545095,-58.03232378630873,0.08847222821068944,-0.01991148164981592
2.034,0.0662494270690541,-0.1038733742191799,-1.013480495233804,-58.06815499572551,0.08843904495966924,-0.018399356459847277
2.067,0.067790333356565,-0.10634782745998866,-1.014121613660964,-58.10488837576985,0.08840630886991858,-0.018811024368262857
2.1,0.06937565710157023,-0.10889715496368985,-1.0147363210952982,-58.14010851739251,0.08837305215262416,-0.01923512902602188
2.137,0.07091198712285904,-0.11137107173912834,-1.0153454535765303,-58.175009237731445,0.08833514557548133,-0.016096780841513142
2.167,0.072445920416028,-0.11384453103657911,-1.0159675374461703,-58.21065201796498,0.08830393061304859,-0.020230384669803366
2.2,0.07402415413142775,-0.1163926369964482,-1.016490798195163,-58.24063265046711,0.08826909807724373,-0.018570325240575142
2.234,0.07555313528083127,-0.1188644968614208,-1.017140183862996,-58.277839708510236,0.08823266676942321,-0.017118024378052096
2.267,0.07707662600503623,-0.12133058022503024,-1.0176291859740934,-58.3058574656491,0.08819678003326409,-0.017466068772417336
2.3,0.0786280905894631,-0.12384340453360032,-1.017610405540997,-58.304781426095246,0.08816037455002096,-0.01771850019295298
2.334,0.08008884511727823,-0.12620701644073917,-1.016647105582826,-58.249588404086914,0.08812232365128637,-0.015966501462061737
2.3689999999999998,0.0814946871597222,-0.12847424124208315,-1.014824429578121,-58.14515676159756,0.08808257915947637,-0.014938383902446329
2.4,0.08290613421172181,-0.13074037436804914,-1.013238558204358,-58.05429302503032,0.08804689053891208,-0.017658462382910012
2.434,0.08425919233710948,-0.13290805520426618,-1.0126913975351688,-58.02294302797023,0.08800722319015984,-0.015170944175369362
2.467,0.08563851849796864,-0.13511735681513545,-1.0128584040973474,-58.032511799134056,0.0879681976481215,-0.016034608993749765
2.5,0.08712671191534141,-0.13750418291428051,-1.0137411038731454,-58.083086770864426,0.08792865541495688,-0.017353521575343443
2.534,0.08864906993410471,-0.13995119494820388,-1.0144918265641243,-58.12610001264222,0.08788737489427492,-0.016943464362306784
2.567,0.0901784381809991,-0.14241273352991293,-1.0150718350460726,-58.15933205073964,0.08784678472217664,-0.01745458319287749
2.6,0.09175320143531068,-0.1449503038114013,-1.0156336038906875,-58.191519034598016,0.08780567895291513,-0.01788505300093833
2.634,0.09327903693303774,-0.14741210341104347,-1.0161950586644237,-58.22368802352058,0.0877627886758079,-0.01644826973486615
2.667,0.09480256002912998,-0.14987331907788415,-1.016770806432673,-58.25667594070534,0.08772063723342954,-0.016823522908945333
2.7,0.09637010418073466,-0.15240880471337528,-1.0173144368666989,-58.28782367018989,0.08767797133194088,-0.01721298042367317
2.734,0.09788938886562909,-0.15486920201963866,-1.0178534102750092,-58.318704571755845,0.08763347485156729,-0.015815653071332633
2.77,0.09940638131582698,-0.15732891033294444,-1.0184101879787373,-58.35060558430645,0.08758576660927381,-0.014542839128637436
2.8,0.10096747039807881,-0.15986317261577393,-1.018937879991562,-58.38084010952407,0.0875455431362956,-0.018550302543217146
2.834,0.10248105684888872,-0.16232302810029134,-1.019404366060289,-58.40756779246377,0.08749944414372082,-0.01520460914067506
2.867,0.10399230343898225,-0.164782041425716,-1.019992170591987,-58.44124651130874,0.08745418077511567,-0.01555165375577867
2.9,0.10554745613630712,-0.167315524020148,-1.0204941780853043,-58.47000942195976,0.08740840535610231,-0.015913245433102376
2.934,0.10705488971195595,-0.16977403900339919,-1.0209898624782199,-58.49841004564433,0.08736070768056357,-0.014581877096293085
2.968,0.10856037491405486,-0.1722321322734538,-1.0214940898143265,-58.52730014391837,0.08731246734970965,-0.014376563357570642
3.0,0.11010943558478145,-0.17476414222748257,-1.0219745189598368,-58.55482670631118,0.08726656938814162,-0.015866778241580275
3.034,0.11161105062252384,-0.1772211925336117,-1.0224324105637204,-58.58106196268818,0.08721727699732888,-0.013979446842201383
3.067,0.11311060796606688,-0.17967754679686349,-1.0229325160520657,-58.6097158964817,0.08716891674917014,-0.01430681552228035
3.1,0.11465370828701678,-0.18220791276549814,-1.02338977724592,-58.63591503302466,0.08712004703669177,-0.014646279748872504
3.134,0.11614943716205256,-0.18466310262833552,-1.02383686653875,-58.66153136256931,0.08706916403704362,-0.013378351712905726
3.167,0.11764312454357426,-0.18711744894833915,-1.0242921196446377,-58.6876154441469,0.0870192613279866,-0.01369546324970211
3.2,0.11918010994961535,-0.18964543700778427,-1.024721353225402,-58.712208716749984,0.08696885051441439,-0.014024301321236221
3.234,0.12066974935554925,-0.1920979287765659,-1.0251515856806097,-58.736859220642934,0.08691638115142986,-0.01278514258371151
3.267,0.12215712495896228,-0.19454911738788114,-1.0255958652712178,-58.76231456610858,0.08686494014739142,-0.013086507167093179
3.3,0.12368757596224814,-0.19707373067280526,-1.0260150981267486,-58.78633483936371,0.08681299244328748,-0.013400394426386934
3.334,0.12517082622674375,-0.19952277497165422,-1.0264274876680344,-58.809963019594726,0.08675894110185445,-0.012189621455263758
3.37,0.1266516460420765,-0.20197010819676214,-1.0268433606166967,-58.833790784366734,0.08670112513420845,-0.011084437109086371
3.4,0.12817471527009286,-0.2044895087233459,-1.0272158129932705,-58.855130733614025,0.08665248585558798,-0.014469502129788337
3.442,0.1296490606332386,-0.20692988097349055,-1.0274691218560004,-58.86964426236171,0.08658369012057304,-0.008561968854362752
3.467,0.13110333648966443,-0.20933746434623332,-1.0273887201825551,-58.86503758580751,0.08654235250601827,-0.016872678955453923
3.5,0.13256359182920885,-0.21175180116194847,-1.0262101542943745,-58.79751073453667,0.0864873441949257,-0.011841798618286627
3.534,0.13392404017720602,-0.2139924302072013,-1.0242666245356737,-58.68615468200504,0.08643014261056109,-0.010525514216735957
3.569,0.13525802471537798,-0.21617935015706047,-1.0221506962564704,-58.56492092185431,0.0863707011969872,-0.010092318407453863
3.6,0.13662134060949538,-0.218404167138105,-1.0206616322564785,-58.47960383922991,0.08631758131733071,-0.012657874243164296
3.634,0.13794138949924906,-0.22055622486744192,-1.020873447903555,-58.49173998184222,0.0862588117490616,-0.01064007458179007
3.667,0.13929824536199426,-0.22277330533280526,-1.02242625127952,-58.58070906169868,0.08620126193748551,-0.011249435195989602
3.7,0.14074863248400507,-0.2251540023496012,-1.0244090950839573,-58.6943176431266,0.08614321149239659,-0.01182837136333607
3.734,0.1422069855693019,-0.22755493854373537,-1.0251695781020138,-58.73789011045261,0.08608287888630628,-0.011064579572868466
3.767,0.1436819433670573,-0.22998582426539052,-1.025544867625076,-58.75939261621955,0.0860238136474229,-0.01152638520760874
3.8,0.14519997531911097,-0.23248984207385315,-1.025895716335197,-58.77949476655709,0.08596424940448173,-0.011818339187499262
3.835,0.14667091381017885,-0.23491811577052826,-1.0262596135653568,-58.80034454202175,0.08590053053356,-0.01021078365228034
3.867,0.1481395623437207,-0.23734448177688575,-1.0266396644607514,-58.82211985432803,0.08584178316556561,-0.011418951561900915
3.9,0.14965084697113532,-0.23984341129113707,-1.0269746792797072,-58.84131478952854,0.08578071015397125,-0.011199250070386064
3.934,0.15111554147037082,-0.2422670209987246,-1.0273461450426495,-58.86259820997874,0.0857172668761492,-0.010072959403456695
3.967,0.15257825562858143,-0.24468931292637291,-1.0277125516149557,-58.883591760157735,0.08565518587177383,-0.010326933347879607
4.0,0.1540834321531391,-0.24718388597986612,-1.028051778267146,-58.9030280156266,0.08559260925860182,-0.010590335418740415
4.034,0.15554247876049662,-0.24960383875288775,-1.0283886632549748,-58.9223301036105,0.08552761863082987,-0.009486140596891013
4.067,0.15699964767652325,-0.2520225393234401,-1.0287335308965584,-58.94208956396387,0.08546403756418378,-0.009729061008564539
4.1,0.15849912283077364,-0.2545133048739411,-1.0290508497914408,-58.96027059740039,0.08539996265485257,-0.009980985405905836
4.134,0.15995267882014405,-0.2569295094103181,-1.029365541622728,-58.97830111118039,0.08533343019118038,-0.008905005799790516
4.167,0.16140438812045338,-0.2593443797849472,-1.0296875468952162,-58.996750654274926,0.08526835446064407,-0.009137523421127685
4.2,0.16289824832372124,-0.261831065635478,-1.0299826408173585,-59.01365829057364,0.08520278669940433,-0.009379165818222925
4.234,0.16434636507949832,-0.2642432005438385,-1.0302755033842699,-59.030438079635026,0.08513471805709522,-0.008330562555091259
4.267,0.1657926526842583,-0.2666539024679877,-1.030575182361918,-59.04760842026306,0.08506815320022261,-0.008552637053783573
4.3,0.16728106486280547,-0.2691363078009635,-1.0308459263444212,-59.063120907789056,0.08500109817067063,-0.008788158411010077
4.334,0.16872388512025677,-0.2715441177222051,-1.0311128802412142,-59.078416239399864,0.08493149915073887,-0.007767019382909539
4.368,0.17016479627771383,-0.27395020817482096,-1.0313838560919684,-59.093942011998045,0.08486138114951179,-0.007574325919155484
4.4,0.17164762900096675,-0.27642772192747594,-1.0316340831805653,-59.108278968094496,0.08479491427040306,-0.008636243070274703
4.434,0.173085068959405,-0.2788306444426965,-1.0318704767223754,-59.12182332034437,0.08472379081817741,-0.007209584594868895
4.467,0.17452050841088157,-0.28123175449265686,-1.0321397106867791,-59.13724929020628,0.08465426488066308,-0.00740352943024955
4.5,0.17599792298707984,-0.28370419105839306,-1.0323736116928406,-59.15065083067746,0.08458425262537474,-0.0076250101218857174
4.534,0.177430003836846,-0.28610194223568014,-1.032606010861028,-59.16396632217695,0.08451161083108899,-0.0066552633715474116
4.567,0.17885997474574494,-0.28849745913723124,-1.0328398585730876,-59.17736480912676,0.08444061322036946,-0.006843009486164653
4.603,0.18033097206085666,-0.2909627949963928,-1.0330328770681698,-59.18842395426294,0.08436260893896126,-0.005940193235018456
4.634,0.1817540543472682,-0.29334867656646313,-1.0331515048048832,-59.195220822909796,0.0842949773885569,-0.007263534052444393
4.667,0.1831607935289647,-0.29570751265815237,-1.0328895678332188,-59.180212939935,0.08422251420444138,-0.006168811522002434
4.7,0.18456948224876832,-0.2980659917972027,-1.031786277038438,-59.11699903381842,0.08414956874390744,-0.006206381364336493
4.734,0.18588700931901525,-0.30026294007394977,-1.0296129933921863,-58.99247905320339,0.08407390911894831,-0.005281196614100766
4.77,0.18718368662975723,-0.3024130793674286,-1.026971747872637,-58.84114683227538,0.08399324255331624,-0.004782906520698589
4.8,0.18851789757684245,-0.30461164378873384,-1.0244804732669937,-58.698407311763894,0.08392558390243009,-0.007899485640272331
4.834,0.18981288746432684,-0.30673734381429674,-1.023488690633127,-58.641582352648975,0.08384842508188295,-0.006044506219951654
4.867,0.19112143113006602,-0.3088865142683402,-1.0245346440896546,-58.70151107127512,0.08377304961943792,-0.006387315027905131
4.901,0.19250808395298943,-0.31117356478429486,-1.026684436570781,-58.82468510727262,0.0836948900638182,-0.006250186612173102
4.934,0.19388496588433335,-0.31345352930255643,-1.0280131216759842,-58.900813156102664,0.08361854477029523,-0.006049204940231136
4.967,0.1953099197423734,-0.3158170185205233,-1.0282598536185055,-58.914949855080195,0.08354172288914076,-0.006201994550616503
5.0,0.19677613808241773,-0.318250236782968,-1.0284902186663416,-58.928148800068534,0.08346442514696449,-0.006389749612094164
5.034,0.1981987296364129,-0.3206121769921457,-1.028693129202466,-58.9397747174072,0.08338428811259412,-0.005439796534804708
5.067,0.19961979083117473,-0.32297267489500037,-1.0288981655962155,-58.951522437415626,0.08330602648505259,-0.0056174103809338675
5.1,0.2010818383146734,-0.32540225167469006,-1.029080344264895,-58.961960506248275,0.08322729123013,-0.00580010409898575
5.134,0.2024990346675568,-0.3277582078293797,-1.0292647200103648,-58.97252445830828,0.083145675474925,-0.004866746630375394
5.167,0.20391454892028457,-0.33011231695983734,-1.029453589675476,-58.98334589299719,0.08306598091828615,-0.0050341420090794075
5.2,0.205371104363133,-0.33253556034708115,-1.029616722137483,-58.99269269457177,0.08298581501592119,-0.005208365332610098
5.234,0.2067831191697597,-0.3348855015043291,-1.0297802352089611,-59.00206130346269,0.0829027276635379,-0.0043005816873204344
5.267,0.2081934052325662,-0.33723340017624653,-1.029949323685756,-59.01174935954733,0.08282160714086452,-0.0044576139822974994
5.3,0.20964459266208388,-0.33965018198405617,-1.0300930926968235,-59.01998671710627,0.0827400176024083,-0.004620740828309537
5.334,0.21105141269550032,-0.34199378299435634,-1.0302376162058628,-59.028267304214644,0.08265546592726689,-0.003736055852544948
5.367,0.21245653226804193,-0.3443352814840918,-1.0303873679162214,-59.03684744519306,0.08257292654823825,-0.0038830878927088763
5.4,0.21390241172774282,-0.3467454079935021,-1.0305120522967701,-59.0439913339697,0.08248992053194519,-0.004034940800246409
5.434,0.21530409274716814,-0.3490824836144683,-1.0306377634778494,-59.05119405408315,0.08240391196012542,-0.0031726858580893255
5.467,0.21670409248924122,-0.35141738806670386,-1.0307683277968631,-59.05867483851763,0.08231996098192002,-0.003309516716260687
5.5,0.21814470859566337,-0.35382065683361885,-1.0308739721003621,-59.064727811237724,0.08223554579384408,-0.0034500765812634023
5.534,0.21954128576190546,-0.35615100236074565,-1.030980803546542,-59.07084880222311,0.08214808790402289,-0.0026096497471511946
5.567,0.22093618922002134,-0.3584790944063208,-1.0310920297535473,-59.077221594455764,0.0820627327322424,-0.0027360722427340997
5.601,0.22237155362979974,-0.36087526201814546,-1.0311782624969104,-59.0821623667063,0.08197430811567762,-0.00254181468933759
